       Energy  Energy_sqrd    QuantVar  BlockingVar  MCcycles  TimeStep    Eta  AcceptanceRation
0    7.508373    63.621591    7.245923     0.003868   16384.0       0.1  0.001          0.980011
1    7.488710    63.304057    7.223281     0.003855   16384.0       0.1  0.001          0.980011
2    7.469078    62.987780    7.200657     0.003841   16384.0       0.1  0.001          0.980011
3    7.449477    62.672760    7.178046     0.003828   16384.0       0.1  0.001          0.980011
4    7.429909    62.358997    7.155443     0.003815   16384.0       0.1  0.001          0.980011
5    7.409325    62.021406    7.123305     0.003799   16384.0       0.1  0.001          0.980042
6    7.390047    61.713376    7.100581     0.003786   16384.0       0.1  0.001          0.980072
7    7.370277    61.393944    7.072960     0.003773   16384.0       0.1  0.001          0.980042
8    7.350842    61.084708    7.049825     0.003759   16384.0       0.1  0.001          0.980042
9    7.331443    60.776717    7.026660     0.003746   16384.0       0.1  0.001          0.980042
10   7.311787    60.466259    7.004027     0.003734   16384.0       0.1  0.001          0.980103
11   7.292461    60.160771    6.980781     0.003721   16384.0       0.1  0.001          0.980103
12   7.273172    59.856521    6.957487     0.003708   16384.0       0.1  0.001          0.980103
13   7.253921    59.553508    6.934137     0.003694   16384.0       0.1  0.001          0.980103
14   7.234708    59.251731    6.910726     0.003681   16384.0       0.1  0.001          0.980103
15   7.215534    58.951186    6.887249     0.003668   16384.0       0.1  0.001          0.980103
16   7.196400    58.651871    6.863698     0.003655   16384.0       0.1  0.001          0.980103
17   7.177306    58.353786    6.840070     0.003641   16384.0       0.1  0.001          0.980103
18   7.158252    58.056926    6.816358     0.003628   16384.0       0.1  0.001          0.980103
19   7.139239    57.761290    6.792558     0.003615   16384.0       0.1  0.001          0.980103
20   7.120268    57.466876    6.768665     0.003602   16384.0       0.1  0.001          0.980103
21   7.100783    57.168800    6.747686     0.003588   16384.0       0.1  0.001          0.980194
22   7.081340    56.861461    6.716083     0.003576   16384.0       0.1  0.001          0.980194
23   7.062499    56.570811    6.691916     0.003563   16384.0       0.1  0.001          0.980194
24   7.043701    56.281368    6.667639     0.003549   16384.0       0.1  0.001          0.980194
25   7.024947    55.993130    6.643250     0.003536   16384.0       0.1  0.001          0.980194
26   7.006237    55.706098    6.618746     0.003523   16384.0       0.1  0.001          0.980194
27   6.987571    55.420272    6.594127     0.003510   16384.0       0.1  0.001          0.980194
28   6.968867    55.134690    6.569581     0.003497   16384.0       0.1  0.001          0.980225
29   6.950292    54.851280    6.544726     0.003484   16384.0       0.1  0.001          0.980225
30   6.931762    54.569075    6.519754     0.003471   16384.0       0.1  0.001          0.980225
31   6.913278    54.288077    6.494665     0.003458   16384.0       0.1  0.001          0.980225
32   6.894841    54.008287    6.469460     0.003444   16384.0       0.1  0.001          0.980225
33   6.876450    53.729708    6.444141     0.003431   16384.0       0.1  0.001          0.980225
34   6.858107    53.452341    6.418711     0.003418   16384.0       0.1  0.001          0.980225
35   6.839811    53.176189    6.393173     0.003405   16384.0       0.1  0.001          0.980225
36   6.821563    52.901257    6.367530     0.003825   16384.0       0.1  0.001          0.980225
37   6.802876    52.620653    6.341533     0.003811   16384.0       0.1  0.001          0.980286
38   6.784726    52.348195    6.315694     0.003796   16384.0       0.1  0.001          0.980286
39   6.766684    52.077013    6.289007     0.003782   16384.0       0.1  0.001          0.980316
40   6.748630    51.806996    6.262989     0.003767   16384.0       0.1  0.001          0.980316
41   6.730626    51.538221    6.236895     0.003753   16384.0       0.1  0.001          0.980316
42   6.712672    51.270694    6.210733     0.003738   16384.0       0.1  0.001          0.980316
43   6.694768    51.004424    6.184511     0.003724   16384.0       0.1  0.001          0.980316
44   6.676914    50.739419    6.158238     0.003709   16384.0       0.1  0.001          0.980316
45   6.659111    50.475689    6.131925     0.003694   16384.0       0.1  0.001          0.980316
46   6.641568    50.215096    6.104665     0.003677   16384.0       0.1  0.001          0.980225
47   6.623869    49.953953    6.078318     0.003663   16384.0       0.1  0.001          0.980225
48   6.606221    49.694128    6.051972     0.003648   16384.0       0.1  0.001          0.980225
49   6.588626    49.435632    6.025641     0.003633   16384.0       0.1  0.001          0.980225
50   7.508373    63.621591    7.245923     0.003868   16384.0       0.1  0.005          0.980011
51   7.409311    62.021166    7.123281     0.003799   16384.0       0.1  0.005          0.980042
52   7.311701    60.464850    7.003874     0.003734   16384.0       0.1  0.005          0.980103
53   7.215271    58.946922    6.886792     0.003668   16384.0       0.1  0.005          0.980103
54   7.119674    57.457473    6.767713     0.003601   16384.0       0.1  0.005          0.980103
55   7.023841    55.975997    6.641659     0.003535   16384.0       0.1  0.005          0.980194
56   6.929935    54.541461    6.517464     0.003469   16384.0       0.1  0.005          0.980225
57   6.837037    53.135305    6.390227     0.003403   16384.0       0.1  0.005          0.980225
58   6.744674    51.750144    6.259510     0.003764   16384.0       0.1  0.005          0.980316
59   6.653738    50.400235    6.128002     0.003690   16384.0       0.1  0.005          0.980316
60   6.564054    49.081593    5.994793     0.003613   16384.0       0.1  0.005          0.980225
61   6.475035    47.789641    5.863564     0.003539   16384.0       0.1  0.005          0.980408
62   6.387381    46.532661    5.734027     0.003464   16384.0       0.1  0.005          0.980408
63   6.300680    45.313934    5.615362     0.003388   16384.0       0.1  0.005          0.980499
64   6.215440    44.126330    5.494635     0.003319   16384.0       0.1  0.005          0.980499
65   6.131556    42.979451    5.383471     0.003245   16384.0       0.1  0.005          0.980499
66   6.050342    41.890752    5.284115     0.003163   16384.0       0.1  0.005          0.980377
67   5.968699    40.816923    5.191560     0.003095   16384.0       0.1  0.005          0.980347
68   5.888964    39.790086    5.110185     0.003023   16384.0       0.1  0.005          0.980347
69   5.810693    38.803484    5.039330     0.002952   16384.0       0.1  0.005          0.980347
70   5.732746    37.825721    4.961345     0.002567   16384.0       0.1  0.005          0.980408
71   5.656978    36.910989    4.909586     0.002512   16384.0       0.1  0.005          0.980408
72   5.583238    36.029674    4.857132     0.002452   16384.0       0.1  0.005          0.980408
73   5.509808    35.162681    4.804692     0.002394   16384.0       0.1  0.005          0.980377
74   5.441927    34.369768    4.755200     0.002349   16384.0       0.1  0.005          0.980530
75   5.371793    33.532343    4.676181     0.002288   16384.0       0.1  0.005          0.980530
76   5.304461    32.743175    4.605863     0.002231   16384.0       0.1  0.005          0.980530
77   5.237924    31.962010    4.526164     0.002172   16384.0       0.1  0.005          0.980652
78   5.173051    31.213605    4.453145     0.002114   16384.0       0.1  0.005          0.980713
79   5.110497    30.505692    4.388511     0.002058   16384.0       0.1  0.005          0.980804
80   5.049490    29.840391    4.343042     0.002004   16384.0       0.1  0.005          0.980804
81   4.990323    29.225071    4.321747     0.001952   16384.0       0.1  0.005          0.980804
82   4.932429    28.661878    4.333020     0.001900   16384.0       0.1  0.005          0.980896
83   4.877703    28.193609    4.401627     0.001857   16384.0       0.1  0.005          0.980927
84   4.824643    27.814538    4.537360     0.001818   16384.0       0.1  0.005          0.980896
85   4.773741    27.575456    4.786851     0.001786   16384.0       0.1  0.005          0.980896
86   4.725054    27.588727    5.262587     0.001770   16384.0       0.1  0.005          0.980957
87   4.679854    28.202332    6.301302     0.001789   16384.0       0.1  0.005          0.981049
88   4.640597    30.557381    9.022241     0.001906   16384.0       0.1  0.005          0.981018
89   4.601512    33.433813   12.259903     0.002056   16384.0       0.1  0.005          0.981079
90   4.556442    31.730785   10.969619     0.001947   16384.0       0.1  0.005          0.981171
91   4.520421    37.956052   17.521843     0.002322   16384.0       0.1  0.005          0.981201
92   4.468367    31.712153   11.745853     0.001942   16384.0       0.1  0.005          0.981232
93   4.416643    26.506557    6.999825     0.001628   16384.0       0.1  0.005          0.981354
94   4.376297    26.613249    7.461276     0.001641   16384.0       0.1  0.005          0.981476
95   4.351792    37.781315   18.843218     0.002368   16384.0       0.1  0.005          0.981476
96   4.382268   182.813602  163.609329     0.010600   16384.0       0.1  0.005          0.981384
97   4.265067    27.982887    9.792091     0.001707   16384.0       0.1  0.005          0.981354
98   4.221184    23.446117    5.627721     0.001390   16384.0       0.1  0.005          0.981354
99   4.184225    22.213974    4.706237     0.001292   16384.0       0.1  0.005          0.981384
100  7.508373    63.621591    7.245923     0.003868   16384.0       0.1  0.010          0.980011
101  7.311678    60.464465    7.003829     0.003734   16384.0       0.1  0.010          0.980103
102  7.119573    57.455874    6.767553     0.003601   16384.0       0.1  0.010          0.980103
103  6.929648    54.537140    6.517113     0.003469   16384.0       0.1  0.010          0.980225
104  6.744042    51.741080    6.258975     0.003763   16384.0       0.1  0.010          0.980316
105  6.562866    49.065287    5.994082     0.003612   16384.0       0.1  0.010          0.980225
106  6.385381    46.505867    5.732778     0.003462   16384.0       0.1  0.010          0.980408
107  6.212329    44.084873    5.491842     0.003316   16384.0       0.1  0.010          0.980499
108  6.045786    41.829781    5.278251     0.003159   16384.0       0.1  0.010          0.980377
109  5.882607    39.704113    5.099047     0.003016   16384.0       0.1  0.010          0.980347
110  5.724213    37.708683    4.942069     0.002869   16384.0       0.1  0.010          0.980408
111  5.572162    35.876911    4.827923     0.002441   16384.0       0.1  0.010          0.980408
112  5.427970    34.181710    4.718851     0.002335   16384.0       0.1  0.010          0.980530
113  5.287347    32.526263    4.570222     0.002214   16384.0       0.1  0.010          0.980530
114  5.152545    30.972826    4.424105     0.002095   16384.0       0.1  0.010          0.980713
115  5.025334    29.572877    4.318898     0.001982   16384.0       0.1  0.010          0.980804
116  4.904416    28.364832    4.311533     0.001874   16384.0       0.1  0.010          0.980896
117  4.792736    27.505573    4.535251     0.001789   16384.0       0.1  0.010          0.980896
118  4.688761    27.329693    5.345215     0.001744   16384.0       0.1  0.010          0.981018
119  4.607526    33.905359   12.676066     0.002083   16384.0       0.1  0.010          0.981171
120  4.519975    35.116443   14.686265     0.002123   16384.0       0.1  0.010          0.981201
121  4.414231    28.323288    8.837855     0.001718   16384.0       0.1  0.010          0.981476
122  4.322240    25.789410    7.107649     0.001568   16384.0       0.1  0.010          0.981323
123  4.248774    30.167749   12.115670     0.001840   16384.0       0.1  0.010          0.981323
124  4.160732    22.346398    5.034707     0.001292   16384.0       0.1  0.010          0.981110
125  4.090705    21.189594    4.455726     0.001188   16384.0       0.1  0.010          0.981079
126  4.023238    20.338808    4.152364     0.001107   16384.0       0.1  0.010          0.981079
127  3.960976    19.517560    3.828232     0.001139   16384.0       0.1  0.010          0.981049
128  3.903988    18.807166    3.566041     0.001073   16384.0       0.1  0.010          0.981049
129  3.852910    18.389965    3.545049     0.001031   16384.0       0.1  0.010          0.981110
130  3.807430    18.350721    3.854198     0.001018   16384.0       0.1  0.010          0.981049
131  3.767663    18.677409    4.482127     0.001033   16384.0       0.1  0.010          0.981110
132  3.723103    18.077821    4.216324     0.000972   16384.0       0.1  0.010          0.981110
133  3.681988    17.107689    3.550651     0.000879   16384.0       0.1  0.010          0.981140
134  3.645241    16.498292    3.210511     0.000815   16384.0       0.1  0.010          0.981049
135  3.611689    16.099236    3.054941     0.000778   16384.0       0.1  0.010          0.981415
136  3.581779    15.800339    2.971198     0.000745   16384.0       0.1  0.010          0.981384
137  3.554894    15.654268    3.016999     0.000724   16384.0       0.1  0.010          0.981384
138  3.530575    15.663932    3.198973     0.000629   16384.0       0.1  0.010          0.981445
139  3.510869    16.072059    3.745859     0.000649   16384.0       0.1  0.010          0.981445
140  3.494386    17.519425    5.308688     0.000732   16384.0       0.1  0.010          0.981537
141  3.480081    19.804813    7.693851     0.000870   16384.0       0.1  0.010          0.981445
142  3.459642    17.714745    5.745621     0.000744   16384.0       0.1  0.010          0.981506
143  3.441813    16.886085    5.040008     0.000699   16384.0       0.1  0.010          0.981415
144  3.427305    17.353760    5.607338     0.000736   16384.0       0.1  0.010          0.981354
145  3.415084    18.361717    6.698917     0.000787   16384.0       0.1  0.010          0.981262
146  3.400323    17.811717    6.249523     0.000747   16384.0       0.1  0.010          0.981171
147  3.382857    16.201764    4.758041     0.000634   16384.0       0.1  0.010          0.981201
148  3.368198    15.384100    4.039340     0.000574   16384.0       0.1  0.010          0.981201
149  3.356255    15.097236    3.832792     0.000549   16384.0       0.1  0.010          0.981201
150  7.508373    63.621591    7.245923     0.003868   16384.0       0.1  0.050          0.980011
151  6.561323    49.044165    5.993199     0.003610   16384.0       0.1  0.050          0.980225
152  5.715985    37.596584    4.924103     0.002860   16384.0       0.1  0.050          0.980408
153  5.002085    29.321361    4.300505     0.001960   16384.0       0.1  0.050          0.980804
154  4.486235    44.709262   24.582958     0.002668   16384.0       0.1  0.050          0.981445
155  4.022113    21.963348    5.785957     0.001202   16384.0       0.1  0.050          0.980988
156  3.717798    18.889138    5.067116     0.001027   16384.0       0.1  0.050          0.981079
157  3.502752    15.064644    2.795373     0.000576   16384.0       0.1  0.050          0.981354
158  3.377561    15.507408    4.099490     0.000555   16384.0       0.1  0.050          0.981140
159  3.293727    14.194667    3.346030     0.000459   16384.0       0.1  0.050          0.981079
160  3.243344    13.198523    2.679242     0.000398   16384.0       0.1  0.050          0.981079
161  3.235249    15.262447    4.795609     0.000542   16384.0       0.1  0.050          0.980896
162  3.219871    13.286322    2.918756     0.000406   16384.0       0.1  0.050          0.980865
163  3.236020    14.384285    3.912461     0.000451   16384.0       0.1  0.050          0.980957
164  3.261403    16.962580    6.325833     0.000608   16384.0       0.1  0.050          0.981049
165  3.279937    15.973558    5.215572     0.000555   16384.0       0.1  0.050          0.981079
166  3.308210    19.045063    8.100809     0.000764   16384.0       0.1  0.050          0.981140
167  3.321729    16.760012    5.726127     0.000664   16384.0       0.1  0.050          0.981384
168  3.333078    14.925936    3.816526     0.000648   16384.0       0.1  0.050          0.981445
169  3.348456    15.439447    4.227293     0.000712   16384.0       0.1  0.050          0.981628
170  3.370488    18.888771    7.528583     0.000860   16384.0       0.1  0.050          0.981659
171  3.388555    27.207867   15.725560     0.001335   16384.0       0.1  0.050          0.981659
172  3.372318    16.456553    5.084024     0.000805   16384.0       0.1  0.050          0.981689
173  3.368590    15.909159    4.561760     0.000758   16384.0       0.1  0.050          0.981720
174  3.365817    16.897803    5.569078     0.000821   16384.0       0.1  0.050          0.981720
175  3.364294    19.295070    7.976597     0.001074   16384.0       0.1  0.050          0.981750
176  3.356190    21.253375    9.989365     0.001216   16384.0       0.1  0.050          0.981812
177  3.331459    17.842329    6.743713     0.000926   16384.0       0.1  0.050          0.981781
178  3.307870    15.743697    4.801691     0.000673   16384.0       0.1  0.050          0.981750
179  3.291380    15.578584    4.745405     0.000634   16384.0       0.1  0.050          0.981659
180  3.285038    21.260009   10.468532     0.000836   16384.0       0.1  0.050          0.981628
181  3.260779    15.974163    5.341483     0.000555   16384.0       0.1  0.050          0.981598
182  3.245140    15.160571    4.629640     0.000488   16384.0       0.1  0.050          0.980164
183  3.270856    57.219760   46.521258     0.002878   16384.0       0.1  0.050          0.980255
184  3.217031    13.624365    3.275076     0.000395   16384.0       0.1  0.050          0.980194
185  3.205046    12.783794    2.511474     0.000353   16384.0       0.1  0.050          0.980316
186  3.199749    12.787178    2.548781     0.000357   16384.0       0.1  0.050          0.980255
187  3.202153    13.451926    3.198143     0.000398   16384.0       0.1  0.050          0.980194
188  3.205446    15.765529    5.490644     0.000564   16384.0       0.1  0.050          0.980316
189  3.192825    13.092827    2.898692     0.000384   16384.0       0.1  0.050          0.980347
190  3.187210    12.644705    2.486397     0.000351   16384.0       0.1  0.050          0.980072
191  3.184149    12.373932    2.235124     0.000333   16384.0       0.1  0.050          0.980194
192  3.182856    12.235096    2.104522     0.000324   16384.0       0.1  0.050          0.980255
193  3.183074    12.236951    2.104991     0.000326   16384.0       0.1  0.050          0.980316
194  3.190743    13.805924    3.625086     0.000446   16384.0       0.1  0.050          0.980408
195  3.192478    13.503636    3.311719     0.000404   16384.0       0.1  0.050          0.980530
196  3.191688    13.019600    2.832725     0.000354   16384.0       0.1  0.050          0.980591
197  3.201871    16.243883    5.991905     0.000529   16384.0       0.1  0.050          0.980530
198  3.198166    14.165921    3.937653     0.000437   16384.0       0.1  0.050          0.980438
199  3.195658    14.427566    4.215334     0.000468   16384.0       0.1  0.050          0.980560
200  7.508373    63.621591    7.245923     0.003868   16384.0       0.1  0.100          0.980011
201  5.712857    37.554306    4.917573     0.002857   16384.0       0.1  0.100          0.980408
202  4.480139    48.420226   28.348577     0.002884   16384.0       0.1  0.100          0.981445
203  3.706889    21.126244    7.385219     0.001178   16384.0       0.1  0.100          0.981110
204  3.362507    16.003887    4.697437     0.000577   16384.0       0.1  0.100          0.980957
